1093
3516
561
4098
758
6214
1679
3711
5594
5826
4027
3938
1399
810
4284
4245
4259
3147
5436
1926
808
995
6088
4269
2313
229
2106
3247
5340
4897
5853
1687
2922
1819
3233
3286
4547
5659
1103
2637
2601
5162
5454
5809
3006
1632
5637
5290
6383
3620
5778
1773
77
4726
4773
4478
5077
244
2236
2823
544
6305
354
1552
4992
2778
5950
5218
2849
157
1
5390
177
1994
3440
3336
20
4299
1599
1925
5691
6053
1301
5046
312
2447
108
4173
1892
5861
742
197
3937
2405
1537
4903
1063
2605
5008
3095
910
4162
1934
4387
4356
2607
4817
5368
1636
3096
3476
5771
3338
6230
3478
4789
2088
163
293
855
1594
4690
5815
2999
5650
3990
5099
1574
1691
3857
319
5277
4764
1335
2535
4498
6386
5638
5422
3799
1121
1586
620
6271
2539
364
2909
1024
4281
2597
5258
4983
2421
5989
2628
1662
747
5359
2061
3761
1694
4261
2315
5140
990
4475
5759
4742
1133
3127
5507
2671
1030
689
560
3878
6167
6245
1041
2312
2906
1957
5613
770
2409
4140
4107
2544
1410
6195
4995
2450
1043
4179
2479
636
2295
1055
6237
2959
2824
3662
5701
6218
2419
3500
1098
2452
1230
4253
4584
1086
5943
4792
3505
4596
3596
1333
4178
3852
841
5467
1027
3333
6041
659
2121
559
4439
2317
1633
65
853
2509
5975
6121
5091
617
4169
4109
2648
6258
6153
296
3730
4865
3934
4332
5166
4317
3962
1154
1884
6190
1601
5582
5822
3177
1159
1695
1705
851
3687
2375
3295
5324
4264
1232
1749
4883
2083
2158
1875
3558
3898
887
2944
1922
4597
2446
6250
3727
4989
4820
1949
4790
4687
3059
1941
96
4396
2364
6057
562
89
4009
3814
5131
70
3537
2888
3075
2800
2982
28
2578
5402
3028
5648
5274
3666
2220
1872
1988
4700
3300
5209
2483
74
4656
5043
5630
4569
1937
3835
49
5387
6268
126
5572
451
5371
6196
5404
1630
2085
462
4581
2741
303
130
3551
2500
2244
3743
727
3451
5394
4048
2559
25
3904
3101
2655
5415
1652
4559
1008
6240
1279
3364
5633
1966
6282
2051
6074
5986
4459
1026
3578
5322
3925
353
6368
937
4760
781
1471
722
2169
3045
1049
4825
3677
1170
5624
4037
673
4702
3842
4111
3817
1751
149
3109
1886
402
3950
2349
2142
5458
1408
1473
4871
1145
744
3609
4440
135
5475
4835
4386
6166
2401
4167
4951
507
2940
740
3571
4388
1365
3271
2687
4032
2040
4028
4933
2814
4314
5427
3572
827
4050
2015
1108
992
6381
5045
980
3103
2835
3345
233
4744
2214
5665
5410
5962
1234
4311
5620
4520
3614
4296
1911
816
767
3886
4339
5508
6065
5827
2720
5571
1775
5363
1885
2795
4600
2799
490
3728
1040
4030
1199
5680
180
2807
5107
2057
1359
6016
172
4715
3315
1969
4417
466
4093
5882
729
200
5348
5033
5890
833
5936
2680
1469
1364
2276
5090
2693
4062
2521
5511
2064
1674
5769
5438
1383
536
3358
13
2443
755
2991
1123
1671
627
3562
5293
4791
175
3186
3611
4771
3955
5261
3111
5298
5142
1094
1608
1753
629
3363
2487
3229
733
1700
5694
6116
5829
756
944
3854
638
1213
2781
4949
699
4083
6302
3130
3993
1190
60
1931
6063
5403
5251
2631
5561
3656
1985
2060
1185
5478
3414
1942
4887
6165
6332
963
4803
6027
4875
2868
5536
4293
4021
3723
3034
1215
1375
138
1656
2128
1193
3894
1899
3555
5888
3039
1834
5201
2393
2075
1639
3329
1013
5568
3692
2801
4502
4133
1802
3582
1684
5194
5819
2699
883
5531
2517
5715
3128
6168
4213
2516
2519
1761
4294
419
2194
5745
5635
3703
358
6101
5464
5599
5439
2508
495
3642
4066
1479
3535
3299
4755
1888
2438
232
1816
5118
5513
4784
3836
5451
2949
101
4252
731
4069
3565
5173
4036
3750
1747
5116
3293
711
4435
2309
2201
114
621
3669
3658
3716
2296
1340
4437
5267
4254
2202
1724
2775
3998
622
531
5583
3046
1583
1737
993
4208
567
933
139
4249
3533
988
6103
3825
5869
3674
5515
3840
6134
2606
5106
1965
1343
5185
1855
2910
4522
1793
5352
3566
3784
94
6314
1236
2744
3697
4632
1976
6206
5088
4201
3678
4640
2009
427
4223
1558
1876
2750
4644
3327
3170
2851
4576
1389
1525
2566
4904
1428
1323
5626
5460
5546
2287
3589
5793
4941
4401
4977
3593
3813
2496
5967
890
864
4729
1938
4135
2221
5497
6238
318
3870
1222
3074
3058
3051
83
3325
939
2870
4308
2764
2283
1735
1246
5265
1554
4572
1025
1321
5956
4987
5072
460
3544
2258
2919
4657
355
3483
917
3479
779
4886
6128
2472
3361
5182
3713
3155
768
2433
2444
3090
2828
6043
527
1032
6147
2280
5933
2931
2670
2656
5155
4872
5119
3412
1657
1022
4788
458
2012
3891
1882
195
4175
3193
3724
2072
3277
3912
3845
5024
4826
2727
442
6257
1225
2674
3328
1239
4120
1928
5965
719
4531
2318
4306
5964
3740
3608
3365
2955
5784
822
931
2760
2400
380
761
5733
3803
390
4802
5234
79
1194
5600
4777
4310
3108
4449
417
3340
2883
3521
1688
3154
1500
847
3958
4433
3888
3355
634
1714
2836
959
3150
4326
946
3060
5362
3047
3279
5520
5019
932
1961
991
4939
2242
5399
2561
5552
5183
189
4557
2706
1069
1623
206
1368
5152
657
4982
5379
4443
1029
4911
5959
3114
4364
5204
4809
5801
2695
2416
4101
2755
440
2046
5556
5226
3091
4998
3722
29
5014
4938
469
3881
6083
4477
116
1228
5817
1805
4579
1201
4292
1416
476
958
2011
1920
913
5346
5125
860
4828
3098
3024
859
2325
2596
1553
4550
5184
757
599
1833
541
1743
1783
357
1089
4289
3135
66
1523
1722
2275
2485
2482
6262
5264
3665
5621
728
678
6085
2153
5476
5089
1037
2971
6378
1745
4577
5783
136
843
777
3267
2425
2176
4074
1056
5462
6307
5696
252
4705
947
2701
4241
2246
5849
3418
1597
3472
3652
2924
5654
1697
4756
4743
4901
2284
1806
2187
3371
1581
2111
3691
3122
5859
3375
5253
4925
745
6330
2281
272
848
3142
2165
1436
4599
2507
3404
3161
3023
3385
3532
1286
1452
2724
5934
2335
3009
3686
1848
5799
4604
6254
6355
3464
2336
5070
3893
2086
2055
1209
5141
2174
1293
5892
3567
6266
363
5753
1426
6076
5353
2028
1763
587
1933
4501
6298
3196
2935
5937
5283
3981
582
885
4000
5143
6281
6235
762
3304
3616
3986
6140
5997
4457
1542
1095
5254
3462
2353
5814
4932
564
1102
2619
51
4781
1561
2914
6114
2497
1240
5343
3648
2609
5800
3800
2654
3709
5360
1591
258
5887
2120
4647
3828
5068
3672
218
2063
5703
6324
3821
5443
2575
1277
5658
2943
4007
3823
957
5725
6117
7
6029
2473
4146
5751
1432
979
6373
3980
3189
763
1681
1109
5225
865
5614
4352
4746
4541
6056
1127
4325
5347
1718
2062
111
5051
4464
6295
5029
4198
4768
1616
611
3042
4660
1139
1470
2224
3157
5655
1865
3858
3240
585
3367
1910
2379
243
894
819
2442
5317
3072
3207
4718
3035
685
1217
2334
5973
1285
969
2537
6311
1862
2307
1002
3789
4780
150
5406
4808
2927
104
3000
4322
6228
327
6293
2688
3922
1853
1158
6163
2097
3401
4836
4859
4033
3374
3255
5692
4831
3868
4404
38
800
628
6086
4565
5942
5870
2746
3618
1115
4268
4106
2240
44
5902
5229
5309
2389
5565
2427
1843
2380
5993
2460
1180
6080
1078
371
2664
1799
6097
967
1520
5840
4943
4591
499
5944
655
5589
2929
3700
737
5479
5302
1176
1897
6385
5230
4841
1567
2547
297
5266
5311
2014
3628
4622
6185
2357
3710
3660
5926
5259
497
1838
368
2026
5153
2644
185
2346
4869
1138
3564
1585
4732
4805
797
1545
4496
416
1458
3758
2243
3621
3864
807
84
830
2068
5895
6079
730
703
1685
6275
2265
6018
3973
4270
4377
1044
3802
2895
6361
4662
1313
684
1446
4290
6267
2396
4653
6171
3897
3205
3819
2445
5860
3428
814
2299
1492
876
316
1268
3725
5319
3231
4016
190
2020
5875
3850
5350
1319
4043
4172
2238
3394
526
4211
3218
3519
2248
2504
2432
2018
406
2344
1559
3258
2954
5288
795
5673
1891
5332
161
4816
6071
1280
2279
4973
2663
1202
5961
2860
6357
6362
5610
1672
3409
5617
2662
5109
4302
3153
5602
87
2889
3203
4214
4527
4362
1249
2034
5200
1187
1114
4221
270
3729
4853
5597
5021
1186
4731
477
2107
3344
3902
5928
1219
2627
1536
4759
5839
5971
3321
4463
5729
4309
4893
2658
4620
6013
5593
283
4724
1627
5198
3427
1541
3230
1612
17
1915
1515
5516
6186
4287
3383
4713
2302
2298
6269
2903
4525
3859
3935
5642
5844
1596
2229
5202
6351
2136
4717
1261
2958
3944
3184
545
734
1362
2613
5981
697
3559
6312
3890
1605
4163
1050
2495
4005
4670
2542
3373
5328
2493
3133
2590
4965
5137
1256
2697
4761
2612
6317
4242
4540
4813
5917
3475
3088
485
4666
5271
2987
5825
1451
4605
4538
6345
6242
4304
1414
4472
4914
1914
5470
5383
4207
919
1019
1183
3222
2458
1784
1144
2132
5976
2966
870
3200
6248
5214
202
1381
4127
2282
1396
5446
3810
1766
3972
2527
2632
4665
5411
533
5595
5295
1978
1272
3501
5914
3296
488
5519
1549
4247
1281
3211
5732
3877
2196
3681
2147
2365
64
2261
6154
2553
2394
5782
4750
4568
513
5314
4168
5517
6291
1224
2474
3431
4714
1498
1641
1015
2300
5734
4626
4004
3603
4907
164
1087
1956
3568
3434
3256
1077
6233
3379
573
3276
3310
973
3092
2589
6129
1810
5760
2000
486
4561
5270
405
58
4186
1804
2788
5872
764
679
2890
3146
1356
5671
2148
3226
2041
977
413
5500
3793
4470
2310
2510
468
5727
2219
4337
3094
5865
97
5036
5037
4010
2377
6059
3763
1324
26
1311
1283
5223
1216
683
3549
1540
2383
67
3460
4100
2583
2149
132
846
5150
5463
2672
4060
2251
5587
5195
5164
2593
1765
4650
306
3846
3407
5502
616
3600
6135
4375
92
6047
2877
4425
5718
721
5566
4497
5918
5512
5224
3169
3348
332
1993
1440
1212
5187
5084
2186
1267
5001
4879
3646
282
6032
3546
6070
2480
4150
4953
4354
1091
338
790
5603
295
3436
3895
370
1135
5092
4466
287
2667
5222
6169
2915
2337
4730
5472
2763
971
3774
6144
2961
6007
3752
1442
1177
1947
976
6039
2195
5296
1852
3918
3924
2321
1035
5538
1076
4216
6292
1376
1615
750
4655
441
1454
1503
4189
1999
1004
3208
4624
4757
3863
2213
1836
4227
4013
5842
879
6028
5627
3839
4936
1221
5213
3102
869
1439
1874
2231
3910
117
1051
4894
5612
3376
1754
3450
866
6277
4462
4152
1422
1675
1995
4745
1200
5774
5061
535
5079
2356
4711
1339
234
98
1846
2645
2641
5843
5255
6109
1096
2004
2501
3285
5711
4091
1338
3426
2528
5157
1546
3699
3753
698
835
6316
3576
3757
3481
2371
2673
524
1475
3004
5743
184
1331
645
6126
4858
1113
1143
5810
1402
6102
3400
2100
3594
4616
2712
6143
3359
1205
3396
1796
3260
4399
221
3093
4974
330
5388
2742
1837
5495
6260
2372
5027
3366
4042
4912
3167
4966
5534
3785
753
2359
4806
143
3001
6280
1033
2457
3928
6283
4929
5871
4563
6184
2466
3502
5372
3513
4195
1809
3805
1490
1244
2732
1398
3987
2249
4232
3775
4613
3991
4770
4503
5916
4748
1918
1580
4072
198
4916
2861
5848
2352
4964
3014
3906
1465
5832
1618
2532
3777
812
769
5816
1300
1463
3712
2348
3149
1097
949
3919
4834
5578
3389
5805
435
1325
61
481
5564
5954
5075
4913
3680
3812
3517
1898
5722
1676
4861
1779
5367
6198
3249
1826
5684
387
5393
6339
4350
408
2847
3768
3243
4383
5717
6174
3764
388
6006
4212
5246
1020
199
880
3435
4902
4639
1052
568
589
4706
5788
907
3831
2753
5676
4602
3848
6000
3235
4839
2859
4155
3219
584
5749
1521
691
3137
4456
6082
2905
4408
2891
4424
2713
203
4716
644
5898
1556
5044
2255
2333
4046
6060
2058
4202
3791
3668
3175
792
793
1305
4957
6031
6205
4286
4844
6255
4222
1640
6127
3136
2735
6136
5958
463
3352
852
343
6141
3949
3515
637
4480
1526
2133
4035
2044
1090
4390
1706
4265
5245
3453
4749
5217
1238
4694
2112
3855
383
6273
3362
1291
404
5951
872
2766
24
3380
570
3806
3458
3560
5252
4305
2074
4646
676
641
5305
2998
671
3526
5598
5321
1488
1984
478
2413
3843
2049
439
5349
4509
46
4073
3044
4783
3164
4976
2130
1840
4426
1812
5108
5297
4022
1081
3309
2163
648
5537
566
4612
6055
3138
6094
831
6003
1353
4277
472
936
4851
239
137
4058
4429
1003
4823
3999
1832
3391
5484
772
1620
626
1237
3974
6279
4695
5908
3438
2183
1748
3377
3468
5795
3573
4485
1647
5192
